# Simple Text Format
# Sampling Rate (Hz):= 1200.00
# Resolution:= 12
# Labels:= ECG	aVL
# Age:=	76
# Gender:=	Masculino
885
885
885
885
885
885
885
885
885
885
884
885
885
885
886
886
886
886
885
885
886
886
886
886
885
885
886
886
886
886
885
885
885
886
886
887
886
886
886
886
886
887
887
887
887
887
888
888
888
888
888
887
888
889
889
890
889
888
888
888
889
889
890
891
891
892
893
892
892
892
892
891
892
893
893
894
893
892
892
892
892
891
890
889
889
889
888
888
888
888
887
887
887
887
888
889
889
888
888
889
890
890
890
891
890
890
890
891
891
891
890
889
889
889
889
889
888
888
887
887
888
887
887
887
886
886
885
885
885
885
884
884
884
884
884
885
884
883
882
882
882
883
883
882
881
881
881
881
881
880
879
879
878
878
878
878
878
877
876
876
877
876
876
877
876
876
876
875
876
876
875
874
874
875
876
876
876
875
875
875
875
876
876
875
874
874
874
873
874
873
872
872
872
872
872
872
871
870
870
870
870
870
870
869
869
868
869
869
869
869
869
868
868
869
868
869
868
869
868
867
868
869
867
868
867
867
866
867
867
867
866
865
865
866
865
865
865
864
864
864
864
865
865
864
863
863
864
864
864
864
863
863
864
865
867
867
868
868
867
867
868
867
867
868
868
868
868
868
867
867
865
864
863
863
863
863
862
861
861
859
860
860
860
859
858
858
858
858
858
858
857
858
857
858
859
858
858
858
857
858
857
858
858
857
858
857
858
857
857
858
857
858
858
858
858
858
858
858
857
858
857
858
858
857
856
856
856
857
856
856
856
855
855
855
855
855
855
854
854
854
855
854
854
854
853
853
853
854
854
854
853
852
852
852
853
853
852
852
851
851
852
851
851
851
851
851
852
851
851
851
850
850
850
850
851
851
850
850
850
850
850
850
850
849
848
848
848
849
848
847
847
847
846
847
846
846
845
845
845
845
846
845
846
845
845
844
845
844
844
844
843
843
843
843
844
844
843
842
842
841
841
842
840
841
840
839
840
839
839
839
839
838
837
838
837
838
838
838
837
838
838
839
838
838
837
837
838
839
840
840
840
839
839
839
839
839
838
838
837
837
836
836
836
835
835
833
833
831
831
831
829
828
827
827
827
827
826
825
825
825
824
824
824
824
823
823
823
823
823
822
823
822
822
821
822
821
821
821
820
820
821
822
821
821
821
821
821
821
821
820
820
820
820
820
821
821
820
819
819
818
819
819
819
818
818
818
819
819
820
820
820
820
821
821
822
823
823
823
824
824
824
826
826
826
826
826
826
827
827
827
826
826
826
826
826
826
826
825
825
825
825
825
825
825
825
824
825
825
825
825
825
825
825
826
827
827
828
828
828
828
829
829
830
831
830
831
831
831
832
833
834
834
834
834
833
832
831
830
830
829
829
829
828
827
825
824
823
823
821
821
819
818
817
817
817
816
816
815
815
815
815
816
816
816
815
815
815
816
816
816
815
815
815
815
815
815
815
814
814
814
814
813
814
813
812
813
812
813
813
813
812
812
812
812
812
812
812
812
812
812
811
812
812
812
811
811
811
811
811
810
809
808
808
809
808
808
807
806
806
805
805
806
807
806
806
806
807
808
808
808
809
810
811
813
815
815
817
817
819
821
823
825
826
827
829
830
831
833
834
836
838
839
842
845
847
849
849
849
849
850
852
852
853
854
853
853
853
852
852
850
848
846
844
843
841
839
837
834
832
830
827
824
821
817
814
810
806
802
799
794
788
784
779
774
769
764
758
753
747
742
738
733
728
723
719
715
713
710
708
706
704
702
702
702
702
703
703
704
705
708
710
713
716
719
721
724
727
729
733
735
737
739
741
743
744
745
747
746
746
746
746
745
745
744
742
740
740
738
737
735
734
733
732
732
731
731
731
731
731
732
733
735
736
737
738
739
741
743
746
748
750
751
754
757
759
761
762
764
765
767
769
770
771
772
773
773
773
774
775
775
775
775
774
774
775
774
773
774
773
773
772
773
772
772
772
772
772
771
772
772
772
771
772
772
773
773
773
772
773
772
773
774
774
775
775
776
776
777
775
774
774
773
773
774
774
774
774
773
772
772
771
771
770
770
769
768
767
767
767
768
767
767
768
767
768
769
768
768
768
768
769
769
769
769
768
768
768
768
768
767
767
766
766
765
766
765
764
764
764
764
764
764
764
763
763
762
763
763
763
763
763
763
763
762
763
763
763
763
762
762
762
762
762
761
761
761
761
761
761
760
760
760
760
759
760
760
761
760
760
759
760
760
760
760
760
759
760
760
760
760
759
758
758
758
758
758
757
757
756
756
755
756
756
755
755
754
754
754
754
753
753
753
753
753
754
753
753
753
753
752
753
753
753
752
751
751
751
750
750
751
750
749
748
749
748
748
749
748
748
748
749
749
749
748
749
748
749
749
749
749
749
749
749
750
750
750
750
749
748
748
748
749
749
748
749
748
747
748
748
748
747
747
747
747
747
747
747
747
746
747
746
747
746
746
746
746
746
746
746
746
746
746
747
746
747
748
747
747
746
747
748
747
747
748
747
747
748
747
748
748
747
746
747
747
747
747
747
748
747
747
748
748
748
748
747
747
748
749
749
749
748
748
748
748
749
749
749
749
748
748
749
748
748
748
747
747
747
748
747
747
747
746
746
746
747
747
746
745
745
745
745
745
745
745
744
743
743
744
744
743
743
742
742
742
742
742
741
741
740
740
741
741
741
740
740
739
739
739
739
738
737
736
736
737
736
737
736
735
735
735
736
735
735
735
734
733
734
733
734
733
733
733
732
732
732
732
731
730
730
730
730
730
730
730
729
729
729
730
729
730
729
728
728
728
729
729
729
729
728
728
727
728
727
727
726
726
725
725
724
724
723
722
722
722
722
722
722
721
720
720
721
721
721
720
720
720
720
720
720
720
720
719
719
719
719
719
719
719
718
719
719
719
719
718
718
718
717
718
718
718
717
717
717
717
717
717
717
717
716
716
716
716
716
715
714
713
713
714
714
714
713
713
713
713
713
713
712
713
712
712
713
713
713
712
713
712
712
712
712
712
712
711
710
710
711
711
711
710
710
710
710
710
709
710
709
708
708
709
709
709
708
707
707
708
708
707
707
706
705
705
705
705
705
705
704
704
704
704
704
704
703
702
703
702
703
703
703
702
702
702
702
702
702
701
702
701
701
702
702
701
700
701
701
700
701
701
700
700
700
700
700
700
700
700
699
699
700
700
700
699
699
699
699
698
699
698
697
697
697
697
696
696
696
695
694
694
694
694
694
693
693
693
693
693
693
693
693
693
692
693
693
693
694
693
692
691
691
691
690
690
689
689
688
689
688
688
687
686
686
685
684
685
685
685
685
685
685
686
685
686
685
684
684
685
686
686
685
685
685
685
685
685
684
684
683
682
682
681
680
680
679
679
679
678
679
678
678
678
678
678
677
678
679
679
679
680
680
681
681
681
680
681
681
681
682
682
681
681
680
680
680
680
680
679
678
677
677
677
676
676
675
674
674
675
674
674
673
673
673
673
672
673
673
673
672
672
672
673
673
672
672
671
671
671
671
671
670
670
669
668
669
669
668
668
667
667
665
666
666
665
665
664
663
664
663
663
663
662
662
662
662
663
663
663
663
662
663
664
664
664
665
665
665
666
667
667
667
667
667
668
668
668
669
669
668
669
669
669
670
669
669
668
667
668
668
668
668
667
667
667
667
666
666
666
665
664
665
664
665
664
664
664
664
664
665
665
665
664
663
663
664
664
664
663
662
662
662
661
661
660
659
658
657
657
657
657
656
656
655
655
655
655
655
654
654
654
655
656
657
658
658
659
659
660
661
662
663
663
663
663
664
663
663
662
662
661
660
660
659
659
656
655
654
653
652
651
648
647
646
645
644
644
643
643
642
641
641
641
641
640
639
639
639
640
640
640
640
639
639
639
639
640
640
640
639
639
639
640
639
638
639
638
638
638
638
638
638
637
637
637
638
638
638
639
638
640
640
641
642
643
643
644
646
647
650
651
653
653
655
657
658
660
661
663
664
665
668
670
671
672
672
673
674
675
676
677
677
676
677
676
676
677
676
675
674
673
672
671
670
669
666
664
663
661
659
656
654
650
646
644
640
637
633
628
623
619
613
608
603
598
592
587
582
577
572
567
562
556
552
547
544
541
538
535
532
530
529
528
527
527
527
527
527
528
531
533
535
537
540
543
546
550
553
556
559
562
565
568
571
572
573
575
576
576
577
577
576
575
574
573
572
571
569
567
565
563
561
560
559
558
557
555
555
555
556
555
555
556
557
558
559
561
563
565
567
569
571
574
577
579
580
583
585
587
590
592
594
595
596
597
599
600
600
600
600
599
600
599
600
600
599
597
598
597
598
597
596
596
595
595
596
596
596
595
596
595
595
595
595
594
594
593
592
592
593
592
592
591
591
591
591
591
590
590
590
590
589
589
590
590
590
590
590
591
591
591
592
591
591
592
592
592
592
592
592
591
591
592
592
591
591
590
591
590
590
590
590
589
589
589
589
588
588
587
587
587
587
587
586
586
586
586
586
587
587
587
587
585
585
585
586
585
586
586
586
586
586
587
587
588
588
587
587
588
588
588
588
588
588
587
588
587
586
586
585
585
585
584
584
583
583
582
581
581
580
581
581
581
582
582
584
584
583
582
581
581
581
582
581
581
580
580
579
579
578
578
577
575
575
574
574
574
574
573
573
573
573
575
575
574
574
573
574
574
575
576
575
576
575
576
576
576
576
576
575
575
575
575
575
575
574
575
577
580
582
583
582
582
580
580
580
580
581
582
581
580
579
579
577
575
572
570
569
567
565
564
563
562
562
562
562
562
562
561
560
559
560
559
559
558
558
558
557
557
557
556
555
555
554
553
552
553
553
552
552
553
554
554
555
555
555
557
557
558
559
560
560
560
560
559
560
561
561
560
560
560
561
561
560
560
560
559
558
558
559
558
559
558
558
559
559
560
560
561
561
561
563
564
566
566
566
567
568
570
571
571
572
572
572
572
572
572
571
571
569
569
568
568
567
566
565
563
562
563
562
562
561
560
559
558
557
557
557
556
555
555
554
555
555
554
554
553
553
553
554
554
553
552
552
552
552
552
551
552
551
550
550
551
551
550
550
549
549
550
549
549
549
549
549
550
550
551
550
549
548
547
546
547
546
545
544
542
542
541
539
539
537
536
535
534
533
533
533
532
531
531
531
532
532
532
532
531
532
532
532
532
531
531
531
531
532
531
531
530
529
528
527
525
525
524
523
523
523
523
522
522
522
521
520
519
520
519
519
519
519
519
520
521
521
521
521
521
521
522
522
522
522
522
521
522
522
522
522
523
522
522
521
522
522
521
520
519
519
519
519
518
518
517
515
515
515
514
514
513
512
510
511
510
510
509
508
507
507
507
507
507
506
506
505
505
504
504
503
503
502
501
502
502
502
501
501
500
500
501
501
502
502
501
500
501
502
503
503
503
503
503
503
503
504
503
503
503
503
503
504
504
505
505
505
506
506
506
505
505
504
504
504
505
504
504
502
501
501
500
499
498
497
496
495
495
494
494
494
493
492
492
492
492
492
492
492
491
490
491
491
491
491
490
489
489
489
489
488
488
487
486
487
486
486
486
486
486
486
486
486
487
487
488
487
488
489
490
490
490
490
490
491
490
491
490
490
489
489
489
490
489
488
488
487
487
486
486
486
485
485
484
483
484
484
483
482
481
481
481
482
482
481
480
480
481
480
481
480
480
480
480
480
481
480
480
480
479
479
479
478
477
477
476
476
476
476
476
475
474
474
474
473
474
474
475
474
474
475
476
477
478
478
478
478
479
480
481
481
481
481
481
482
482
482
482
481
481
480
480
479
479
479
477
476
475
475
474
474
473
472
472
471
471
470
470
469
469
469
470
470
470
469
468
468
468
468
468
467
468
467
466
467
467
467
467
466
465
464
464
463
463
462
462
461
461
462
462
462
461
460
460
460
461
460
461
461
461
462
464
464
465
466
467
467
468
469
471
471
471
472
472
472
474
474
474
473
473
474
474
475
476
476
476
476
476
476
477
477
477
476
477
477
478
478
477
476
475
475
474
473
473
472
471
469
469
469
468
467
465
464
462
461
461
460
458
458
457
456
456
457
457
457
457
457
459
460
461
462
463
464
464
466
468
469
470
470
471
471
472
473
473
473
472
472
471
471
471
470
469
468
466
466
465
463
462
461
460
459
459
459
458
457
456
455
454
454
454
453
453
452
453
453
454
454
454
454
454
454
455
456
456
457
457
457
457
458
458
457
456
455
454
454
453
453
453
452
450
450
450
449
448
448
447
447
447
448
449
450
450
450
450
450
450
451
451
452
453
454
456
456
457
457
458
459
460
462
462
464
465
466
468
469
472
473
474
476
477
479
481
483
484
486
487
489
489
490
491
492
492
493
493
493
493
493
493
492
491
490
490
489
488
485
483
482
479
477
474
472
468
464
461
456
453
448
443
438
432
427
422
417
412
406
401
395
390
385
381
377
372
368
364
361
360
357
355
353
352
350
350
350
350
350
351
352
353
355
357
360
362
364
366
370
373
377
380
382
384
387
390
392
394
395
396
397
397
399
398
399
398
398
397
396
396
394
393
392
391
389
388
388
387
385
384
384
383
383
384
385
385
385
384
385
387
387
388
389
390
392
394
397
398
400
402
404
406
409
411
412
413
413
414
414
415
417
417
418
418
419
420
420
420
420
420
420
421
421
422
422
423
422
423
423
425
425
425
425
425
424
426
426
425
425
423
423
423
423
423
422
421
420
419
420
420
420
420
419
419
418
419
420
420
419
420
419
420
420
420
420
420
419
419
419
420
420
420
419
419
419
420
419
420
419
419
419
419
420
420
420
420
420
420
421
421
421
421
421
420
420
420
421
422
422
423
423
422
422
422
422
421
421
421
421
421
421
420
419
418
417
418
417
416
416
415
414
413
412
412
412
412
411
410
410
411
411
410
409
409
409
409
409
409
409
408
408
408
409
409
409
408
409
408
409
410
410
410
411
410
411
412
412
412
411
412
411
412
412
412
412
413
413
413
413
413
413
413
412
413
412
413
414
414
413
412
412
412
412
412
412
413
413
414
414
414
413
411
410
409
409
408
409
408
408
407
406
406
406
405
405
403
403
403
403
403
403
403
403
403
403
404
405
405
405
405
405
404
404
404
403
402
402
401
402
403
402
401
402
401
401
401
402
403
403
403
404
404
405
406
407
407
407
408
408
409
409
409
408
408
408
409
408
408
407
407
406
406
406
406
405
406
405
405
405
405
405
405
406
406
406
407
407
408
409
408
409
409
410
410
410
410
410
410
410
410
410
409
408
407
407
406
405
406
405
405
405
405
405
405
405
405
406
406
408
410
412
412
413
413
413
414
414
415
416
415
415
416
415
415
414
413
412
412
410
410
409
408
407
406
406
405
405
404
403
403
402
401
400
400
400
399
399
398
398
398
397
396
395
395
393
394
393
393
393
392
391
390
390
390
389
390
389
390
390
391
391
391
390
391
391
393
394
395
395
396
396
397
399
399
399
399
398
398
398
399
397
396
396
395
393
393
392
392
390
389
388
387
387
386
386
385
385
386
385
386
387
387
387
388
389
390
391
394
395
396
396
396
397
397
397
396
395
395
396
395
394
393
391
390
388
387
387
385
383
382
380
380
379
379
379
380
379
379
380
381
381
382
382
382
382
383
384
384
383
383
383
383
384
384
384
383
383
383
383
383
384
383
383
384
383
384
384
384
384
383
383
384
384
385
385
385
384
384
385
386
386
385
384
384
384
384
385
385
385
385
384
384
385
384
383
383
382
381
380
380
380
379
378
377
377
377
377
376
375
374
373
373
373
373
373
372
372
372
373
374
376
376
376
377
376
377
378
379
379
378
379
380
380
380
380
379
377
377
375
375
375
374
373
372
371
371
371
371
370
369
369
369
370
370
370
370
370
370
371
372
372
373
373
373
374
375
376
376
376
376
376
377
378
378
378
379
378
377
377
378
378
377
377
376
376
377
377
378
377
376
376
376
376
376
375
374
375
374
374
374
374
373
372
372
371
371
371
371
370
370
369
369
369
369
369
368
368
368
368
368
370
369
370
369
370
371
372
372
372
372
372
373
373
374
375
375
376
376
376
376
374
373
373
372
371
372
372
372
372
371
369
369
369
368
367
366
366
365
365
366
366
365
365
365
365
366
366
366
366
366
365
366
367
367
368
369
368
369
369
370
370
369
369
368
369
369
369
368
368
367
367
367
366
366
366
365
364
363
363
363
362
362
361
361
361
361
362
362
361
361
360
360
360
360
360
359
359
359
358
358
358
357
356
355
355
355
356
356
356
356
356
356
358
359
360
360
362
363
364
365
366
366
366
368
368
370
370
370
370
369
369
368
369
368
368
367
366
365
365
365
364
363
362
363
362
363
365
365
365
366
367
368
369
371
372
372
372
373
374
375
376
377
376
377
377
378
379
379
378
377
377
377
376
376
376
375
374
375
375
375
376
377
376
375
374
373
372
371
370
370
370
369
368
368
367
365
364
362
362
361
360
359
358
357
356
355
355
355
354
353
353
353
353
353
353
352
352
352
352
352
353
353
353
353
355
355
356
356
357
357
358
359
360
361
362
362
362
362
363
363
363
363
363
363
362
363
362
362
362
362
360
360
359
359
358
357
357
356
356
356
356
355
354
354
355
355
355
356
357
357
357
359
360
361
363
363
364
364
366
368
370
371
372
374
376
378
379
381
382
383
384
385
387
388
389
389
390
390
390
391
392
391
391
391
392
392
392
391
390
389
389
388
387
386
386
384
383
383
382
382
381
380
379
377
375
374
371
369
366
363
360
357
354
350
346
342
336
331
327
322
317
311
305
300
296
291
287
283
279
275
272
270
268
266
264
263
262
262
262
263
264
265
266
266
268
271
273
275
278
280
283
287
290
294
296
298
301
303
304
307
308
310
310
311
311
312
312
311
310
309
308
307
306
305
303
301
299
298
297
297
297
296
295
294
295
295
295
296
297
296
298
299
300
302
304
305
307
308
311
312
315
316
318
320
321
324
325
328
329
330
331
332
333
333
333
333
333
332
333
333
332
332
331
330
329
330
329
329
329
328
329
328
329
329
330
330
330
330
331
332
333
333
333
333
334
335
336
336
337
337
336
337
338
338
338
338
337
337
337
338
338
338
338
337
337
336
337
336
336
335
334
335
336
335
335
334
334
333
334
334
335
334
333
333
333
332
333
332
332
332
332
332
332
332
332
333
332
331
332
332
332
333
332
333
333
333
334
334
334
334
333
333
333
333
332
331
330
330
329
330
328
328
327
327
327
327
328
327
327
326
326
327
328
328
329
328
328
328
329
330
330
330
330
329
330
330
331
331
330
330
331
332
332
333
332
332
331
331
332
332
332
331
331
331
331
331
331
330
330
329
329
329
329
330
329
329
329
329
330
330
330
330
330
330
330
330
330
330
329
329
329
329
330
329
329
329
327
327
327
326
327
327
326
326
326
326
326
325
324
323
323
323
324
324
324
324
323
323
323
323
323
323
323
323
323
324
325
326
326
325
326
327
328
328
329
329
328
329
330
330
331
331
331
331
332
334
335
336
336
335
335
334
333
334
333
333
332
331
330
329
328
326
325
324
323
322
321
321
320
319
318
318
318
319
319
319
319
319
320
322
323
323
324
324
325
326
328
329
330
331
332
333
335
335
336
337
337
338
339
340
341
340
340
341
340
341
341
341
340
339
338
338
338
338
337
336
336
336
336
337
337
336
336
335
336
336
337
337
338
337
338
338
339
340
340
339
338
338
338
339
337
338
336
336
336
336
337
336
336
335
336
336
336
337
336
336
336
335
335
335
335
335
335
335
335
335
335
334
333
332
331
330
330
330
329
327
326
326
325
326
325
324
323
322
322
322
323
322
323
322
323
323
325
326
326
327
327
327
328
329
330
330
331
331
332
332
333
333
333
333
332
333
333
333
333
333
333
333
334
333
333
334
333
333
334
335
337
337
337
336
336
337
337
338
338
338
337
336
336
334
334
333
332
331
330
329
328
326
325
323
322
322
320
320
320
319
318
318
319
320
320
321
321
321
322
323
324
325
326
326
326
327
328
328
328
329
329
329
330
330
331
331
330
330
331
332
331
332
332
332
332
332
333
334
334
334
334
334
334
334
334
333
332
332
332
332
332
332
331
331
329
328
328
327
327
326
325
325
325
325
325
325
325
325
325
326
327
328
328
327
329
329
331
332
333
333
333
333
333
334
334
334
333
333
334
334
334
332
332
330
330
330
331
331
331
331
331
331
331
330
330
331
330
329
330
330
330
331
331
331
331
332
331
332
332
331
331
331
331
331
333
333
334
334
335
336
337
337
337
337
337
338
338
339
339
339
339
339
340
341
341
341
341
340
340
340
340
340
339
338
338
338
338
338
337
337
336
336
335
334
334
334
332
333
332
332
332
331
331
330
330
331
331
331
331
331
330
330
330
331
331
331
331
330
331
332
332
332
332
331
331
331
332
332
332
332
332
332
333
333
333
334
333
334
335
336
337
337
338
338
338
339
341
342
343
344
343
344
345
345
346
345
345
344
345
346
347
347
346
346
346
345
345
345
344
343
343
343
342
342
342
341
339
339
338
338
338
337
337
336
335
335
336
335
335
334
333
333
333
333
333
332
331
330
329
330
329
329
329
328
328
328
328
329
329
328
328
329
331
331
333
333
334
334
336
336
338
338
339
339
341
342
344
344
345
345
345
346
347
347
348
348
349
349
349
350
351
352
351
350
350
350
350
350
350
349
348
348
348
347
346
345
344
343
341
342
341
341
340
341
341
342
343
344
345
345
345
345
346
347
347
348
349
348
349
350
351
350
350
349
348
348
348
348
347
347
346
345
345
345
344
343
343
342
342
343
343
342
341
340
340
340
340
340
339
338
338
338
337
337
337
337
336
336
335
335
335
334
334
333
333
333
333
333
334
333
332
332
332
333
333
332
332
332
332
333
333
332
331
331
331
331
332
332
332
333
332
333
333
334
334
334
334
335
335
336
337
337
337
336
336
337
337
338
337
337
337
337
337
338
338
338
339
339
339
341
343
345
347
348
350
352
354
357
359
361
364
366
369
371
374
375
377
378
380
383
384
385
386
387
388
388
388
387
387
387
386
386
384
384
383
381
379
378
376
375
373
371
369
366
363
361
359
356
353
350
345
341
337
334
330
326
321
318
313
309
305
300
296
291
286
282
279
275
272
269
265
262
260
258
256
253
251
250
250
249
250
251
251
253
254
257
260
263
266
269
273
277
280
285
289
292
296
299
302
305
307
310
311
311
312
311
312
311
310
307
306
304
302
301
298
297
295
293
292
291
291
290
289
288
288
289
290
291
292
293
293
294
295
296
298
298
300
300
302
303
305
305
306
306
305
307
307
309
309
309
310
312
313
314
315
316
316
318
319
321
322
323
324
324
325
326
327
328
328
329
328
328
328
327
326
325
324
324
323
324
323
323
323
322
322
322
323
323
323
323
323
323
324
325
325
326
325
326
327
328
328
328
329
328
328
329
329
329
330
329
329
329
330
329
330
330
329
330
330
330
331
330
329
329
328
329
329
328
326
326
326
326
326
326
326
325
324
324
324
325
325
325
324
324
324
324
325
324
324
324
324
323
323
324
323
322
321
320
319
318
318
319
320
320
320
322
322
323
323
322
323
324
326
327
328
328
328
329
329
329
329
330
328
328
328
328
328
327
328
326
326
325
325
326
325
325
324
323
324
325
324
324
323
322
322
322
322
322
322
322
321
322
322
323
323
323
322
322
322
323
325
326
325
326
326
327
327
327
326
325
325
324
324
323
322
321
319
319
318
317
316
316
315
314
314
314
313
314
314
313
314
314
315
315
316
316
316
316
318
318
319
320
319
319
319
320
320
320
320
320
319
319
319
320
318
318
317
317
318
318
318
317
317
316
316
316
316
316
316
316
316
316
316
316
316
316
316
315
317
317
317
317
318
317
319
319
320
321
321
320
320
320
320
320
321
321
322
321
322
323
324
324
324
324
324
324
326
325
326
326
326
325
326
326
326
326
326
326
326
326
326
326
325
325
324
325
325
326
326
326
326
327
328
328
328
329
328
327
327
327
328
328
327
326
325
325
325
324
323
323
322
321
320
320
319
318
317
317
317
318
318
319
319
319
319
320
320
322
322
323
323
323
325
326
327
328
328
328
328
329
328
328
328
328
327
327
327
325
324
323
321
319
318
316
315
314
312
312
312
311
311
310
310
309
308
308
309
310
310
310
310
310
311
312
312
313
312
312
313
312
313
312
313
312
312
312
312
313
313
313
312
313
313
314
314
314
314
315
314
315
315
316
316
315
315
315
314
313
313
312
311
312
311
311
311
310
309
309
308
309
309
309
309
309
309
309
309
310
310
310
309
310
310
311
311
311
310
310
310
311
311
311
310
310
311
310
311
311
312
311
311
311
310
310
309
309
307
307
307
307
307
306
306
304
303
302
302
301
300
300
300
300
301
301
301
300
301
301
302
304
305
306
307
307
308
310
311
312
313
314
313
313
315
314
315
314
314
313
312
311
311
311
309
308
308
307
307
307
306
306
306
306
306
307
307
307
308
308
309
311
311
312
312
312
312
313
313
313
313
312
312
312
312
312
312
311
310
310
308
309
308
308
307
306
307
307
306
306
306
305
304
304
305
305
305
303
302
301
301
302
302
301
301
300
300
299
299
298
298
297
297
297
296
297
297
297
296
296
297
297
297
298
299
300
300
302
302
303
303
303
303
303
304
305
306
306
306
306
307
307
308
308
307
308
308
309
310
311
311
310
310
309
308
309
308
307
307
306
305
306
304
303
302
301
300
299
298
297
297
296
296
295
295
295
296
295
294
294
293
294
294
293
293
293
292
292
292
292
291
292
291
292
291
292
292
292
291
291
293
293
294
294
294
295
296
296
297
296
296
296
295
295
294
294
294
293
292
291
290
290
289
288
287
286
284
284
284
284
283
283
282
282
283
283
283
283
283
283
283
285
285
285
285
286
286
288
289
290
291
291
291
291
292
292
292
292
291
292
291
291
291
290
289
288
288
288
286
287
285
284
284
283
284
284
285
286
285
286
286
287
288
288
288
288
289
290
291
292
292
293
292
292
293
292
293
293
293
292
292
292
291
291
291
290
290
290
290
290
289
288
287
287
287
286
286
286
286
285
286
287
287
287
288
287
287
288
289
289
290
290
290
290
291
291
292
291
290
290
289
289
288
288
287
286
286
286
286
285
285
283
282
281
282
281
281
280
279
277
278
277
277
276
276
275
275
275
274
274
274
273
273
273
274
274
274
274
274
274
275
275
276
275
275
274
274
274
274
275
274
273
272
272
272
272
271
271
270
269
270
269
269
268
268
267
268
268
268
268
267
267
267
268
268
269
270
270
270
270
272
273
274
275
275
277
278
279
281
283
284
286
286
289
291
293
294
296
297
299
302
304
306
307
309
309
311
312
313
315
315
315
316
316
316
317
316
315
315
314
313
312
312
310
308
306
305
303
301
300
297
294
291
288
285
282
280
275
272
269
264
260
255
250
244
240
235
230
225
221
216
211
206
201
198
194
191
187
183
181
178
177
176
175
174
174
175
176
178
180
182
184
186
189
193
196
199
203
205
208
211
214
216
219
220
222
223
225
226
227
226
225
224
223
222
222
221
220
218
217
216
215
214
213
211
210
210
210
210
211
211
211
211
211
213
214
215
216
217
218
220
223
226
227
229
230
231
233
235
236
238
238
239
240
241
242
243
243
244
244
245
246
247
248
248
249
249
248
249
250
251
250
251
252
252
253
253
253
253
252
253
252
253
253
253
252
253
253
252
251
250
251
250
251
251
252
251
251
250
250
250
251
251
250
251
251
252
254
255
255
256
254
253
254
253
253
253
252
251
251
251
251
250
249
248
247
246
247
247
247
247
246
247
247
247
248
249
249
249
249
249
250
250
249
248
248
247
248
249
249
249
248
247
248
247
247
248
248
248
247
248
249
249
249
248
248
249
249
249
250
249
249
248
247
247
247
247
247
247
246
248
248
249
249
249
249
250
252
253
253
253
252
252
252
251
252
252
252
251
249
249
247
245
243
241
239
236
236
235
236
235
234
234
233
233
233
233
234
235
236
237
238
239
239
239
240
240
240
242
242
242
242
241
241
241
240
241
240
240
241
241
242
243
244
244
244
245
245
246
247
248
248
248
250
250
252
251
251
250
250
250
250
250
250
250
249
248
249
249
248
248
248
247
247
247
247
246
247
246
245
246
246
247
246
246
245
245
245
246
246
244
245
244
243
244
244
244
244
243
243
244
244
244
245
244
243
243
243
244
245
245
245
245
246
245
246
246
246
245
246
246
247
249
249
250
249
251
252
253
254
254
254
253
254
255
256
256
255
255
255
255
255
256
255
254
254
254
254
253
252
252
251
251
251
252
251
251
250
251
251
251
252
253
254
253
253
253
254
254
255
254
255
254
256
255
256
255
255
254
254
255
255
255
255
254
253
253
254
253
254
254
256
256
257
257
256
255
254
253
253
254
254
255
254
254
252
251
251
249
248
246
246
244
243
242
241
240
239
238
238
238
238
237
237
237
236
237
237
238
238
238
238
237
238
238
238
239
238
239
239
239
240
240
239
239
240
240
239
240
240
239
238
238
238
238
238
237
237
236
236
236
236
236
236
236
235
235
235
236
236
235
235
234
234
235
234
235
234
233
232
232
231
230
228
227
226
225
225
225
224
224
223
223
223
223
224
224
225
225
226
227
230
231
232
233
234
235
236
237
238
238
237
238
237
238
238
237
236
236
234
234
233
232
230
229
227
227
226
226
225
224
223
222
222
222
223
224
224
224
224
225
226
227
227
227
228
228
230
230
230
230
230
229
229
228
228
227
225
224
223
223
223
222
221
220
220
220
221
222
223
223
225
225
225
227
229
231
231
232
233
233
234
234
235
235
234
235
234
235
235
234
233
231
231
230
229
228
226
225
224
222
222
221
221
219
218
217
216
215
215
214
213
214
214
214
215
214
214
215
215
215
216
216
216
216
215
215
215
216
216
215
214
213
213
213
214
213
212
212
212
212
213
213
213
213
212
213
213
214
213
214
214
214
213
213
214
214
213
212
212
212
213
212
213
212
212
213
214
215
217
216
216
216
215
216
216
216
215
215
215
214
214
213
211
210
207
205
205
203
201
199
198
196
195
194
193
193
192
191
192
191
192
192
192
192
192
193
194
194
195
194
194
194
195
197
198
198
197
198
198
198
198
199
198
198
197
198
198
197
197
197
196
194
193
193
192
191
190
188
187
185
185
185
184
183
183
183
183
184
183
183
183
184
185
185
186
186
186
186
187
188
188
188
188
187
187
186
186
185
186
184
184
183
182
182
182
182
181
180
181
181
183
184
185
186
187
188
189
191
191
192
193
194
195
197
198
199
199
199
199
199
200
200
199
199
198
198
198
198
198
198
197
198
197
197
197
197
197
197
196
197
198
198
198
197
196
195
195
194
193
192
191
189
187
186
185
183
183
182
182
182
181
180
180
179
178
178
179
180
181
182
184
185
187
188
190
190
190
190
191
193
194
195
195
196
195
196
196
196
196
195
195
193
194
193
193
192
190
189
188
188
187
186
185
184
183
181
181
180
179
178
178
178
177
178
179
178
178
177
178
178
178
180
179
180
179
180
181
182
182
183
183
183
183
183
183
182
181
180
179
179
179
178
177
175
174
174
175
174
174
174
175
176
176
178
180
181
183
185
187
189
192
194
197
198
200
202
205
207
209
211
213
213
215
217
218
219
220
220
222
223
225
226
227
228
228
228
229
230
231
230
230
230
230
229
229
229
228
227
225
225
224
223
221
219
217
215
213
210
207
204
201
199
195
192
189
184
179
174
170
166
162
157
153
150
145
141
137
133
129
123
120
116
113
110
107
105
101
100
97
96
95
94
95
94
94
94
95
97
98
100
101
103
106
110
113
115
118
120
124
127
131
133
136
138
141
143
145
148
149
150
150
151
152
152
152
152
150
150
149
148
147
145
144
142
142
140
140
140
139
140
139
139
140
141
142
143
143
144
145
148
149
151
152
153
154
156
157
158
160
160
161
162
163
165
166
168
168
169
170
171
173
175
176
177
179
181
183
185
186
187
187
188
189
191
190
191
191
190
190
191
190
190
189
188
187
185
184
183
182
181
179
179
179
179
180
180
179
178
177
177
176
177
177
177
177
178
179
180
181
181
181
182
182
182
182
183
183
183
184
186
187
187
187
187
187
187
187
188
188
187
187
187
187
188
188
188
187
186
185
185
185
183
183
182
182
183
184
184
184
183
183
182
182
182
182
181
180
180
179
179
179
180
179
179
180
180
180
180
180
179
179
178
179
180
180
181
181
180
181
182
183
184
184
183
184
185
186
188
189
189
190
190
190
191
192
191
191
191
192
193
194
194
195
194
194
194
193
194
193
193
192
191
191
190
190
190
189
188
188
187
188
187
187
186
186
186
186
186
187
187
186
186
186
186
185
184
184
183
183
183
183
184
183
182
181
180
180
179
179
179
178
178
177
178
178
178
177
177
177
177
179
179
180
180
180
180
181
181
182
182
182
182
182
183
184
184
186
186
188
190
192
192
191
190
190
190
191
192
193
194
195
195
195
196
197
196
195
195
195
195
195
195
193
194
193
193
193
194
194
194
192
192
193
193
193
193
193
192
193
193
194
196
195
197
198
198
200
201
202
202
201
202
202
203
203
203
203
203
204
205
205
206
206
206
206
205
206
207
206
206
205
205
205
206
205
205
203
202
201
201
201
200
199
198
198
197
197
196
196
196
196
198
198
200
201
201
201
202
203
204
205
206
207
206
207
207
207
207
208
207
207
206
206
206
205
204
204
203
202
202
202
202
201
200
200
199
199
198
198
198
197
197
197
197
197
196
195
196
195
196
197
197
196
196
196
197
196
197
197
197
196
196
197
197
197
197
196
195
195
195
195
195
194
194
193
193
193
193
192
192
191
190
190
191
190
189
188
188
187
187
188
188
188
187
186
186
187
187
187
187
188
188
189
191
191
193
193
195
197
198
199
199
199
199
199
199
200
200
200
200
200
199
198
198
197
196
194
192
191
191
191
191
190
190
190
190
190
191
191
190
190
190
191
191
191
191
190
190
191
192
192
193
192
192
191
191
191
192
192
192
192
192
192
193
193
192
191
191
190
191
191
191
191
189
189
189
189
190
189
189
189
189
188
188
189
188
188
187
188
188
189
189
189
189
188
189
190
189
190
189
189
189
189
190
191
191
191
191
191
192
192
193
193
192
192
193
193
194
194
194
194
194
193
194
194
193
192
192
192
192
193
193
192
191
191
190
191
192
191
191
191
191
190
191
192
191
191
190
191
191
191
191
190
190
190
189
190
191
191
190
190
190
190
191
192
191
190
190
190
191
191
191
191
191
190
190
191
191
191
190
189
188
189
188
188
188
186
186
186
187
187
186
185
185
184
185
185
186
186
185
185
185
185
186
186
186
186
185
185
186
187
187
186
186
186
187
187
187
187
186
186
186
185
186
185
185
185
184
185
184
184
184
184
184
183
183
182
182
182
180
179
178
177
176
175
174
173
171
172
172
172
172
172
172
172
174
174
176
178
179
180
182
184
185
187
188
189
190
191
193
194
194
194
193
192
192
191
190
189
188
187
185
184
183
183
181
180
178
178
177
177
176
176
175
175
175
176
176
176
176
176
176
177
178
178
180
179
180
180
182
183
184
185
185
185
186
187
188
189
189
188
189
189
190
190
190
189
189
190
190
190
190
189
189
188
188
188
187
187
186
185
184
183
183
183
182
181
180
179
179
179
178
177
176
175
175
175
175
175
176
175
175
176
177
177
177
177
177
178
178
179
180
180
180
180
180
182
183
182
182
182
182
181
181
181
181
180
179
180
180
180
180
179
179
179
178
179
179
178
178
177
177
177
177
177
177
175
174
175
174
174
173
172
172
172
171
172
172
172
171
171
171
171
171
172
171
171
171
171
172
172
172
173
172
171
172
172
172
172
172
172
171
171
171
171
170
169
168
169
168
169
168
168
167
167
168
168
169
170
170
169
170
170
172
172
173
175
175
177
179
182
183
184
185
187
188
191
193
194
195
196
198
200
200
202
203
203
204
205
206
207
208
208
208
208
208
210
210
210
210
210
210
210
210
210
209
208
206
206
204
204
202
199
196
193
190
187
184
179
175
169
164
160
155
149
143
137
132
127
122
117
112
107
102
97
94
90
87
84
81
78
76
75
73
73
71
71
70
71
72
74
75
76
77
78
81
84
88
91
93
96
98
101
104
106
108
110
112
113
115
117
118
117
116
115
115
115
114
112
111
109
107
106
105
103
101
100
99
98
98
97
98
97
97
97
99
101
103
104
106
107
110
113
116
118
119
122
124
127
129
132
133
135
136
138
139
140
141
141
142
141
141
142
141
141
140
138
138
137
137
137
137
135
134
133
134
133
133
132
132
131
131
131
131
131
131
131
132
132
133
134
134
135
134
135
137
138
140
141
141
142
142
141
142
142
142
141
142
142
142
142
141
140
138
137
136
136
134
133
132
131
130
130
129
129
128
128
127
128
128
129
129
129
128
128
129
130
130
130
129
130
130
129
130
130
129
128
128
128
128
128
127
127
126
125
125
126
125
125
125
124
124
124
125
125
125
124
124
124
125
125
125
125
125
125
125
125
126
125
125
124
124
125
125
126
125
125
125
125
126
126
126
125
126
126
126
127
128
128
127
128
128
128
128
128
128
128
127
127
127
127
127
125
125
124
123
123
123
122
120
119
118
119
118
118
117
116
115
115
115
115
114
114
114
114
114
115
116
116
115
116
116
116
117
117
116
116
116
116
117
117
117
116
116
116
117
116
116
115
115
114
114
114
115
115
115
115
115
116
117
117
117
117
118
118
117
119
118
118
119
118
119
119
119
119
119
118
117
117
118
117
117
116
116
115
116
116
117
116
115
115
115
116
117
117
117
117
118
118
119
120
119
119
119
118
118
120
120
120
120
119
119
119
119
120
119
119
120
120
121
122
122
122
123
123
124
125
126
126
126
126
126
127
128
128
127
127
127
127
127
128
128
127
126
125
126
127
126
126
125
125
124
124
124
124
123
124
123
124
125
126
127
126
124
124
123
124
124
124
124
123
123
122
122
122
120
118
117
117
116
115
115
113
111
110
110
111
110
109
108
108
108
108
109
109
108
109
109
111
112
113
113
113
113
114
114
115
116
116
116
115
116
116
115
116
114
114
113
112
112
111
111
109
108
107
107
107
106
105
104
105
104
105
105
105
104
105
105
106
106
107
108
108
108
108
109
110
110
110
110
110
110
111
112
112
111
111
111
111
111
111
111
111
110
111
111
111
111
110
110
110
110
110
110
110
109
109
108
107
108
108
107
107
106
104
105
105
104
104
103
103
102
103
102
103
102
102
102
101
102
101
102
101
101
101
102
102
102
103
103
104
104
105
106
106
106
107
107
107
108
110
110
111
111
111
111
111
112
112
111
112
112
112
112
112
111
110
110
109
110
109
109
109
109
108
108
109
109
109
109
109
109
108
109
109
110
110
110
110
111
112
112
112
111
112
112
112
113
112
112
111
111
111
110
110
110
109
109
108
108
108
108
106
106
106
107
107
107
107
106
107
107
108
108
108
108
108
108
109
110
111
111
111
111
111
111
111
111
111
110
111
110
110
111
111
110
109
109
110
110
111
111
110
109
110
110
110
111
111
111
110
111
110
111
111
110
109
109
108
108
108
108
107
106
106
106
105
105
104
104
104
103
103
104
104
104
103
104
104
105
105
105
105
105
104
105
105
106
106
105
105
105
104
104
103
102
102
101
102
101
102
101
101
101
101
101
103
103
103
103
103
103
104
105
104
105
105
105
105
107
108
108
107
107
107
107
107
107
106
105
105
105
105
105
104
103
103
103
103
104
104
104
103
103
103
104
104
104
105
105
105
105
106
107
106
106
106
105
104
105
104
104
102
102
102
101
101
101
99
98
97
96
96
96
96
96
95
96
96
97
98
97
97
96
97
97
98
98
97
96
97
97
97
98
99
100
101
101
103
104
106
107
108
109
110
113
115
118
120
120
121
122
124
125
125
124
124
123
123
123
122
121
120
118
117
117
116
115
114
113
112
111
111
111
111
110
109
109
109
110
110
110
110
109
109
110
109
109
110
109
109
109
110
110
110
110
109
109
110
110
111
111
110
109
109
110
110
110
110
109
108
108
109
108
108
106
106
105
104
104
104
103
103
101
100
99
99
99
97
95
95
94
94
93
93
92
91
90
90
90
91
91
91
90
92
93
95
95
95
96
96
96
98
99
99
99
98
99
100
100
101
101
100
99
99
98
98
96
95
94
92
92
91
90
91
89
88
88
88
89
91
92
92
93
94
96
98
100
103
106
108
112
115
119
122
124
126
128
130
133
135
136
138
139
141
143
145
146
146
146
146
147
147
148
149
149
148
148
148
148
148
147
146
145
144
143
142
141
138
136
133
131
129
126
122
118
114
109
106
101
97
92
86
80
74
69
63
58
52
46
40
35
30
27
21
16
13
10
8
7
6
5
3
3
4
5
6
8
8
10
12
13
16
19
20
23
25
28
31
34
37
39
40
42
43
46
47
48
48
48
47
48
47
47
46
45
44
42
41
41
39
38
37
35
34
33
34
33
32
31
30
31
32
33
34
35
35
36
38
40
41
43
44
45
48
51
53
56
58
60
62
64
66
68
70
72
72
73
75
77
78
79
78
78
78
79
79
79
78
77
77
76
77
76
76
74
73
73
73
74
74
74
74
74
74
75
77
77
78
78
78
79
80
81
81
80
80
80
81
81
81
80
80
78
78
78
77
77
77
78
78
79
78
78
77
76
75
76
76
77
79
78
79
79
79
79
80
80
79
79
79
78
79
79
79
78
78
78
78
78
79
79
78
77
77
78
78
78
77
77
77
77
77
78
78
77
77
76
77
76
76
76
75
75
74
74
74
73
72
71
71
71
71
72
72
72
72
72
72
74
75
75
76
76
76
78
78
79
80
80
79
79
79
79
79
78
76
77
76
76
75
75
73
73
72
73
73
73
73
73
72
72
73
73
72
72
72
72
73
73
75
74
74
75
75
75
76
76
76
77
78
78
79
80
80
80
79
79
79
79
80
80
80
80
80
80
80
80
80
79
79
79
79
80
80
80
80
80
81
82
81
82
81
80
80
79
80
80
79
78
78
78
78
78
78
77
76
76
75
76
76
76
75
75
75
75
75
76
75
75
76
75
76
76
76
76
76
76
77
78
78
78
77
77
77
77
78
77
76
75
75
74
75
75
75
74
74
74
75
75
75
76
75
76
76
77
78
79
79
80
79
81
81
82
83
83
83
83
85
85
85
85
86
86
86
87
87
88
89
89
89
90
90
90
91
90
90
89
89
89
89
89
88
87
87
87
86
86
85
85
83
83
83
83
83
82
81
81
81
81
81
80
78
77
77
77
77
76
76
75
75
75
75
76
77
77
77
79
81
82
83
84
83
82
83
84
84
85
84
83
83
81
81
81
78
76
74
72
71
70
70
68
66
66
65
64
65
65
65
65
65
65
66
67
68
68
69
70
72
74
75
76
77
78
79
80
81
82
82
82
82
83
83
83
82
82
81
80
80
80
79
78
76
75
74
74
74
74
73
71
71
71
70
70
69
68
68
67
67
67
67
66
64
63
62
62
62
61
60
59
59
58
59
58
58
57
56
57
58
59
60
61
61
62
63
65
66
67
68
69
71
72
73
74
76
76
77
77
78
79
79
79
78
78
78
79
79
79
78
77
78
77
77
76
76
74
73
73
73
74
73
72
72
71
71
71
71
71
70
70
70
69
69
69
69
69
68
69
69
70
70
70
69
69
68
69
69
70
69
70
71
71
71
72
71
71
69
68
68
69
68
67
67
66
65
65
64
63
61
60
59
57
57
57
57
56
55
57
58
59
60
61
62
63
65
68
69
72
73
74
76
77
79
80
81
82
81
81
81
81
80
79
78
77
77
77
77
76
75
74
73
73
73
74
74
73
73
73
74
75
76
75
75
75
75
75
75
74
74
73
72
71
71
71
70
69
69
68
68
68
68
67
67
66
65
66
67
67
66
66
65
65
65
66
65
65
66
66
67
68
69
70
69
69
70
71
72
74
74
73
74
75
76
77
77
77
76
77
77
76
76
76
74
74
73
73
73
73
73
73
73
73
73
73
73
73
72
72
73
74
74
73
73
72
72
73
73
73
73
72
72
72
71
72
71
70
70
70
70
71
71
70
70
69
69
70
70
70
69
68
68
67
68
67
66
65
64
64
64
66
65
66
65
65
65
65
66
66
66
66
67
67
68
69
69
69
69
70
72
73
74
75
75
75
77
78
78
79
80
81
82
83
84
85
86
85
85
85
86
86
86
85
84
83
82
81
81
80
78
77
76
75
74
73
72
70
69
69
69
69
69
69
68
68
69
70
70
71
70
71
72
74
75
77
78
78
79
79
81
82
83
83
84
84
85
86
87
88
87
87
86
85
86
85
84
84
83
82
82
83
82
82
81
80
79
79
79
79
77
76
75
75
74
74
73
71
70
69
69
69
69
68
67
66
66
66
66
65
65
65
65
65
66
67
67
67
66
65
66
66
65
65
65
64
65
65
66
65
65
65
65
66
67
67
67
67
66
67
68
70
70
71
71
70
71
72
73
73
73
74
74
75
75
77
77
77
78
79
81
83
85
86
87
89
91
93
95
97
99
100
102
104
106
108
109
110
111
112
114
115
116
116
115
115
114
113
113
113
111
110
109
108
108
107
106
104
102
100
99
97
96
94
91
89
86
85
82
79
75
71
67
63
60
55
50
44
39
34
29
26
21
16
11
6
3
0
-3
-7
-10
-13
-15
-16
-17
-18
-18
-19
-21
-20
-20
-19
-17
-16
-15
-13
-11
-9
-7
-5
-3
0
2
4
7
10
12
14
16
18
20
22
24
24
25
24
25
25
25
25
23
23
21
20
19
18
16
14
12
11
11
10
10
9
8
8
8
9
9
11
11
12
14
17
20
24
27
29
31
33
36
38
42
44
46
47
49
52
53
54
53
53
52
51
51
50
48
46
45
45
44
44
43
43
43
43
43
44
45
45
46
47
48
49
50
51
52
53
53
54
55
57
58
59
59
60
61
62
64
64
65
65
66
67
68
69
69
69
69
70
70
71
71
70
69
68
67
67
67
66
64
62
61
61
61
61
60
59
58
59
58
59
58
58
58
57
56
57
56
55
55
54
53
54
55
55
54
53
51
50
50
50
50
49
48
47
48
49
50
50
50
50
51
51
52
53
53
53
53
54
55
56
57
58
58
60
61
63
65
67
68
68
68
68
69
69
68
67
67
68
67
68
67
67
66
64
63
63
61
60
59
57
57
55
56
56
55
54
54
55
55
56
55
56
55
56
55
55
56
56
56
56
56
57
57
58
59
58
59
60
61
62
62
63
63
64
65
65
66
67
66
66
67
68
68
68
68
67
67
67
67
66
65
64
62
62
60
60
58
58
56
55
55
54
54
53
54
53
53
53
52
53
53
54
54
55
56
57
58
58
57
58
58
58
60
60
60
60
60
60
61
61
62
61
61
62
62
63
63
63
63
63
63
62
62
62
59
59
57
57
57
57
57
57
57
56
57
58
60
60
62
62
65
67
69
73
76
79
82
85
88
90
92
92
92
92
93
94
93
92
90
88
84
82
79
75
72
68
65
61
60
57
55
52
50
49
49
48
48
48
47
47
47
48
48
50
51
53
55
57
60
63
65
67
69
72
75
79
81
85
88
91
94
97
100
103
105
107
109
111
112
113
113
112
111
110
109
109
108
106
104
102
100
98
96
94
92
90
87
86
84
82
80
78
76
74
73
72
72
71
71
70
70
70
71
71
71
71
71
72
74
75
76
77
77
79
80
82
83
84
84
84
84
84
84
83
82
82
79
79
78
77
76
75
73
72
71
72
72
71
70
70
69
70
70
71
71
71
72
72
73
74
75
75
76
76
76
76
76
77
76
76
75
75
75
74
74
73
73
73
74
75
75
75
74
74
74
74
75
74
74
74
75
75
75
76
76
76
76
77
78
80
81
81
81
81
81
82
83
84
84
84
86
85
86
86
84
84
82
82
81
80
79
77
75
74
72
72
71
71
70
68
68
67
68
68
67
67
67
68
69
70
71
71
72
73
74
75
77
78
78
79
81
82
83
84
84
84
84
85
86
86
87
87
87
87
86
86
86
84
83
81
80
79
79
79
78
77
77
77
77
77
77
77
77
77
79
80
81
83
84
85
85
87
89
89
90
90
90
90
91
92
92
91
91
91
92
92
93
92
92
91
91
90
91
91
91
91
90
91
92
91
91
91
90
90
91
91
92
92
91
91
91
91
91
91
91
90
89
89
88
88
87
87
85
84
83
83
83
83
81
80
79
79
79
78
78
78
77
78
79
81
82
82
83
83
85
87
88
90
91
90
92
93
94
94
95
94
94
94
94
94
94
94
93
92
91
91
91
90
89
89
87
87
87
86
86
85
84
85
85
85
85
84
83
83
84
84
85
85
84
85
85
86
86
86
86
86
86
86
87
87
87
87
86
86
85
85
85
84
83
82
80
80
80
79
79
78
78
78
79
78
79
78
78
79
80
81
83
83
84
85
85
87
89
90
91
91
92
93
94
95
96
97
96
96
96
97
97
97
96
96
95
94
95
94
93
92
92
92
92
91
91
90
89
89
89
90
90
90
90
90
91
91
92
92
92
91
90
91
91
91
92
91
91
90
90
90
89
89
89
88
87
88
88
88
88
87
87
88
89
91
92
92
92
91
91
92
92
92
92
91
91
91
91
90
89
88
87
87
87
87
87
87
85
85
85
85
84
83
82
82
82
82
81
80
79
77
75
74
73
71
69
68
68
67
66
66
65
64
63
63
62
63
64
64
64
64
65
66
67
69
71
71
72
72
73
74
76
76
78
78
79
81
82
82
83
83
83
84
84
85
85
84
84
84
84
84
86
85
85
86
86
87
88
88
88
89
90
91
93
94
96
99
100
101
103
106
108
109
111
112
114
115
117
118
120
121
122
123
124
125
125
126
126
126
127
127
127
127
126
126
125
125
124
124
122
121
119
117
116
114
112
109
106
102
99
96
92
88
84
80
74
69
64
59
54
48
42
37
31
26
22
17
13
9
5
2
-1
-3
-6
-8
-9
-9
-9
-9
-9
-9
-8
-5
-3
-2
0
3
5
7
11
14
16
19
21
23
25
27
30
31
32
33
34
35
36
37
37
36
36
35
34
33
32
31
29
28
26
25
24
22
21
20
19
18
19
19
19
19
20
22
24
27
28
29
30
31
33
35
38
41
42
44
46
48
50
52
53
53
53
55
56
56
57
57
56
56
56
57
57
56
57
56
56
57
58
59
59
59
59
59
60
61
62
62
62
64
65
66
67
67
68
68
69
70
70
71
72
71
71
72
73
75
75
75
75
74
74
75
75
75
73
72
72
72
72
71
70
69
68
67
67
65
64
63
60
60
58
58
57
56
54
53
53
53
53
54
55
54
54
55
55
56
57
59
60
60
61
63
64
65
67
67
67
69
69
70
70
70
69
69
68
68
68
66
65
65
65
65
64
64
64
63
63
62
63
64
63
63
63
63
64
64
64
63
63
63
62
62
63
63
62
61
61
61
62
61
60
60
59
59
58
59
59
59
58
58
58
58
58
58
58
57
58
59
59
59
60
59
59
59
60
61
61
61
61
61
61
62
62
62
62
62
62
61
62
62
62
62
62
61
62
61
61
61
60
60
59
59
60
60
59
59
59
59
59
59
60
59
60
61
63
64
64
64
64
63
64
63
64
65
64
64
63
62
62
62
61
59
58
57
57
56
55
54
54
53
53
53
53
54
53
53
53
54
54
54
55
55
54
56
56
56
57
57
56
57
57
57
58
58
57
58
57
57
58
58
58
57
57
57
58
57
57
57
56
56
56
57
56
56
57
56
56
57
57
58
57
57
56
56
57
58
59
59
59
59
60
61
61
61
61
63
62
63
64
65
65
65
66
66
67
67
68
67
67
67
66
67
66
66
65
64
64
64
64
64
64
63
62
61
62
62
62
62
61
61
62
62
62
63
63
62
62
62
63
64
63
63
63
64
64
64
65
64
64
64
64
63
64
63
63
63
62
62
62
63
61
61
60
60
60
60
60
59
58
58
58
58
59
59
58
57
57
56
57
57
57
57
56
56
56
57
57
57
56
57
57
56
56
56
56
55
55
55
55
54
54
53
54
54
53
54
54
53
52
52
52
52
52
52
52
52
51
52
51
53
52
51
52
51
52
52
52
52
52
52
52
52
52
52
52
51
51
51
51
52
52
51
50
49
49
49
49
48
47
46
46
47
47
47
46
45
45
46
46
47
46
47
46
47
47
48
48
49
49
49
50
50
51
50
51
50
50
51
51
51
52
52
51
51
52
53
53
52
52
52
52
52
52
51
51
50
49
49
49
49
48
47
47
46
46
46
46
46
46
45
46
47
47
47
48
47
48
49
50
50
50
51
51
51
52
53
54
53
53
54
54
53
53
53
52
52
52
51
52
52
52
51
49
49
49
49
48
47
46
45
44
43
43
42
41
42
41
41
42
42
42
41
42
42
43
44
45
45
46
47
48
49
49
50
50
50
50
51
52
51
52
51
51
51
52
52
53
53
53
52
51
51
51
51
50
49
49
49
49
48
47
47
45
44
44
43
43
42
41
40
40
39
40
39
39
38
38
39
38
39
39
39
39
39
39
40
41
40
41
40
41
41
42
42
41
42
41
42
42
43
42
42
41
41
42
41
41
41
40
39
39
39
39
38
38
37
37
36
37
37
36
36
35
34
34
34
34
33
33
33
32
33
33
33
33
33
33
34
36
36
36
36
37
37
38
39
40
40
41
41
42
42
42
42
42
41
41
41
41
41
41
39
39
39
39
39
39
38
38
38
37
38
38
38
36
36
37
38
38
39
39
40
39
40
40
41
40
41
41
41
41
42
43
42
42
42
42
42
42
42
41
42
41
42
41
42
42
42
41
41
41
41
42
42
42
42
43
43
44
44
45
44
43
43
44
44
44
44
43
43
43
43
44
43
42
41
41
41
41
41
40
40
40
40
40
40
40
40
39
38
38
39
38
38
37
36
36
37
36
36
36
35
35
35
35
35
35
35
35
35
34
34
35
34
33
33
32
33
34
34
34
33
32
32
32
32
31
31
31
30
30
30
31
30
30
29
29
29
30
31
30
30
30
31
31
32
32
33
33
33
33
34
35
35
34
34
34
35
34
34
33
32
32
31
31
30
30
29
28
28
27
28
28
29
28
28
29
30
33
33
34
35
37
39
41
43
44
45
47
48
50
52
54
55
56
57
59
61
63
64
66
67
67
69
69
71
71
71
72
72
71
72
71
70
68
66
65
63
60
59
56
53
50
48
45
43
40
36
32
29
25
22
19
14
10
6
3
-1
-6
-10
-14
-19
-24
-29
-33
-37
-41
-46
-50
-54
-57
-60
-62
-65
-67
-69
-71
-71
-70
-70
-70
-70
-68
-67
-64
-62
-59
-57
-54
-52
-49
-46
-43
-40
-38
-37
-35
-32
-30
-29
-28
-28
-27
-27
-26
-26
-26
-26
-27
-28
-29
-28
-27
-27
-28
-28
-29
-29
-30
-30
-30
-30
-31
-30
-29
-29
-28
-28
-28
-28
-28
-27
-26
-24
-23
-23
-21
-19
-17
-15
-13
-12
-10
-8
-6
-4
-3
-2
-1
0
1
2
2
4
3
4
4
4
5
6
5
5
5
5
6
5
6
6
6
6
5
5
6
6
6
6
7
7
8
8
8
8
8
8
8
9
9
9
9
9
9
10
10
9
10
10
10
10
10
10
10
10
10
9
10
10
10
10
10
11
11
12
12
12
12
12
12
12
12
12
12
12
12
11
12
12
11
10
9
9
9
8
8
7
6
6
6
5
5
5
4
5
5
4
4
3
3
4
4
4
4
4
4
4
5
5
5
5
6
6
6
5
5
5
6
7
7
7
6
6
7
6
7
7
7
6
6
7
7
7
7
6
7
7
8
8
8
8
8
8
8
9
9
8
8
8
8
8
8
8
8
7
7
7
6
6
6
6
6
6
6
5
5
5
5
5
5
4
4
4
4
4
4
4
4
4
4
4
4
4
4
4
4
4
5
4
4
4
5
5
4
4
4
4
5
5
6
6
6
6
6
6
6
6
5
5
5
5
6
5
4
4
3
3
4
3
3
2
2
1
2
2
2
2
2
1
1
3
3
3
3
3
3
3
4
5
5
5
5
6
6
7
7
7
7
6
7
8
9
9
9
9
9
9
8
9
9
9
9
9
9
10
11
11
10
10
10
11
11
12
11
12
12
12
12
12
12
13
13
13
13
14
14
15
14
15
15
15
16
16
16
16
15
16
15
16
16
16
15
16
15
16
16
15
15
15
15
15
15
15
16
15
14
14
15
14
14
13
13
13
12
13
12
12
11
11
11
11
11
11
11
11
11
11
12
11
12
12
11
11
11
12
11
11
10
10
10
10
10
10
9
9
9
8
9
9
9
8
9
9
9
9
9
8
9
8
8
8
8
9
8
7
7
7
8
7
7
6
5
5
5
5
5
5
5
5
5
4
5
5
5
5
5
5
6
6
7
7
7
8
8
9
9
8
8
8
8
8
7
7
7
7
6
7
6
5
5
4
3
3
3
2
2
2
1
0
0
0
1
1
1
2
1
2
2
2
3
3
3
4
4
5
5
5
5
5
5
5
5
5
5
5
5
6
6
7
7
6
6
6
6
6
7
7
7
7
7
8
7
7
7
6
5
5
6
6
6
5
5
5
5
5
5
4
4
3
4
3
4
3
3
3
2
3
4
3
3
3
4
4
4
4
4
4
4
4
4
5
6
6
6
5
5
5
5
5
5
5
4
5
4
5
5
4
4
3
3
4
4
5
4
3
4
4
5
5
5
5
4
4
5
5
6
5
4
3
3
2
3
2
2
1
1
1
1
1
1
2
1
1
1
2
2
3
2
3
4
5
5
6
5
5
4
5
6
6
6
6
5
5
5
5
4
4
3
2
1
2
1
1
1
1
0
0
1
2
2
2
2
2
3
4
5
6
6
6
6
7
8
8
8
7
8
8
8
8
8
6
6
6
5
5
5
5
4
4
4
3
4
3
3
2
2
2
2
2
2
1
1
1
1
1
2
1
1
1
0
1
2
2
1
1
0
1
1
1
1
1
-1
-1
-1
-2
-2
-3
-4
-4
-5
-5
-6
-6
-6
-7
-6
-6
-7
-7
-6
-7
-7
-6
-6
-5
-5
-5
-4
-4
-3
-2
-1
-1
0
-1
-1
-1
0
-1
-1
-2
-2
-2
-3
-3
-3
-3
-4
-5
-5
-5
-5
-6
-6
-6
-7
-7
-7
-7
-7
-7
-7
-8
-7
-7
-6
-6
-5
-5
-4
-4
-3
-2
-3
-2
-2
-1
0
1
1
1
1
1
2
1
2
1
0
0
0
-1
0
-1
-1
-1
-2
-2
-2
-3
-3
-3
-4
-4
-4
-3
-5
-4
-5
-6
-7
-7
-6
-7
-8
-9
-9
-10
-10
-10
-11
-11
-12
-13
-13
-13
-13
-14
-15
-15
-15
-16
-15
-16
-16
-17
-16
-17
-17
-17
-17
-18
-19
-19
-19
-20
-21
-21
-22
-23
-24
-24
-24
-25
-25
-26
-27
-26
-27
-26
-26
-26
-27
-27
-28
-27
-27
-28
-29
-29
-29
-29
-29
-29
-29
-30
-31
-30
-30
-30
-31
-30
-31
-32
-31
-30
-31
-31
-31
-32
-31
-32
-32
-33
-33
-34
-35
-36
-36
-36
-38
-39
-41
-42
-42
-43
-44
-45
-46
-47
-47
-47
-46
-47
-47
-48
-48
-47
-46
-46
-44
-43
-42
-40
-38
-37
-35
-35
-33
-32
-30
-29
-27
-25
-24
-23
-22
-21
-18
-17
-16
-16
-15
-14
-13
-12
-12
-13
-13
-13
-13
-13
-13
-13
-15
-16
-17
-18
-19
-21
-23
-25
-27
-30
-32
-35
-38
-41
-45
-49
-53
-56
-60
-64
-70
-76
-81
-86
-92
-97
-102
-109
-115
-120
-126
-131
-136
-141
-146
-150
-153
-156
-159
-161
-163
-165
-166
-166
-166
-165
-164
-163
-162
-160
-158
-156
-153
-150
-148
-146
-142
-139
-137
-134
-131
-130
-127
-126
-124
-123
-121
-121
-120
-120
-120
-119
-119
-120
-120
-122
-123
-124
-125
-126
-128
-129
-129
-130
-130
-130
-132
-132
-134
-134
-134
-134
-134
-134
-133
-132
-131
-129
-127
-125
-123
-122
-120
-117
-115
-112
-111
-109
-107
-105
-102
-100
-98
-97
-96
-95
-93
-93
-92
-91
-91
-91
-92
-92
-92
-93
-93
-94
-95
-96
-96
-96
-97
-97
-98
-98
-97
-97
-96
-96
-95
-95
-94
-94
-92
-91
-90
-89
-88
-87
-85
-84
-83
-83
-83
-84
-84
-84
-84
-85
-86
-87
-88
-89
-89
-89
-89
-90
-92
-92
-93
-92
-92
-93
-94
-93
-93
-92
-91
-91
-91
-90
-90
-90
-88
-89
-88
-88
-87
-86
-85
-84
-83
-83
-84
-83
-82
-82
-81
-81
-80
-80
-80
-79
-78
-79
-79
-79
-79
-80
-80
-81
-81
-82
-84
-84
-85
-85
-86
-86
-86
-87
-87
-86
-87
-87
-86
-86
-85
-83
-80
-79
-77
-75
-73
-72
-71
-68
-65
-64
-63
-62
-60
-59
-57
-56
-56
-55
-55
-55
-55
-54
-55
-55
-56
-56
-55
-55
-55
-55
-55
-56
-56
-56
-56
-56
-56
